nm	mua[cm-1]	mua_std[cm-1]
250	16.52330923198419	0.18758020549041296
252	16.466087230651926	0.04760038594671224
254	16.697111899002802	0.048015481669539
256	17.01981617675237	0.21000383477991022
258	17.393168440923585	2.014429563719286e-15
260	17.96358468769121	0.04056325076273775
262	18.55564238023118	0.2820980318413999
264	19.04145700038944	1.4313052163268617e-15
266	19.737800930848405	0.04384938753338914
268	20.046888160437657	0.046065181052363596
270	20.708710097457864	0.43301270189221885
272	20.843900188017084	0.3685214484189104
274	20.985029125208	0.45580284409707345
276	20.909009419734726	0.054811734416736424
278	20.68484870392324	0.07448973049959663
280	20.373499177442703	2.7470895519765205e-15
282	19.720001242412412	0.06557184444381325
284	18.81405290530166	0.39323429686412514
286	17.88802238908109	2.014429563719286e-15
288	16.67924227233694	0.19750829452377747
290	15.570401849889413	0.22310804665968373
292	14.334416158813454	0.0
294	13.144737838270965	0.024957504431827666
296	12.17047135441439	0.07970862550196371
298	11.320308415162229	0.020281625381368875
300	10.693691361562713	0.026949479027219843
302	10.277707320676766	0.05475440513315836
304	10.039844459840765	0.051696871642939346
306	9.960901566072405	0.06772694076831551
308	10.091160575715785	0.05186775993448563
310	10.330679248702936	0.05724663426091509
312	10.715476643086356	0.026098981912365343
314	11.096795231632193	0.018908851611014216
316	11.584769886380982	0.02939156879255464
318	12.128805225040166	0.07482617074178227
320	12.688426816756355	0.08815067074997578
322	13.249040644908726	0.033832604112919794
324	13.819663515091472	0.03616115392025785
326	14.4043877163976	0.10971647521213881
328	14.949535734199406	0.12179743436827603
330	15.505677049209163	0.028964060327239163
332	16.01561131212598	0.0
334	16.304523906855874	0.04540668362329029
336	16.788781199956777	0.03402850309565623
338	16.91085423034852	0.03324473718942112
340	17.25828085299231	0.05142497808306498
342	17.26076208466456	0.2192275725608449
344	17.431871578669558	0.052357092101205684
346	17.219353684669368	0.03443440969321873
348	17.24497445860734	0.21688837479633213
350	16.871392709097158	0.03305440472459737
352	16.570572436595086	0.05797005560032416
354	16.12537611883337	0.0
356	15.724393039730487	0.14003589965431756
358	15.2542900209708	0.14590670472915557
360	14.850613850972026	0.0
362	14.573681766793891	0.0
364	14.256650655055921	0.025584206906483043
366	14.07305142570027	0.02681193200571056
368	14.074889293805498	0.11134243440202765
370	14.07305142570027	0.02681193200571056
372	14.25317878488896	0.11395071102426785
374	14.642029146681395	0.039007780705022733
376	15.16373720508574	0.12371791482634903
378	15.924804689761816	0.0
380	16.75618050548967	2.1476637491948515e-15
382	17.95171143441914	1.5213873628089711e-15
384	19.29506675544648	1.783265515423631e-15
386	20.922480608153098	0.05871358669724987
388	22.60119271027636	0.09678993863594804
390	25.031628929685894	2.3182491218592484e-15
392	27.026415209298904	0.1719733995538056
394	28.917691448366426	0.16340101958196973
396	32.30922173740158	3.56715730196032e-15
398		
400		
402		
404		
406		
408		
410		
412		
414		
416		
418		
420		
422		
424		
426		
428	29.59777724928676	3.2734262435599552e-15
430	27.809466014238197	3.399349888776295e-15
432	24.58731728750563	0.12197540898372333
434	22.354908266529094	0.757283741488995
436	19.96106522463971	0.058122510321103056
438	17.888936661216903	0.06371893560138402
440	16.087441953907796	0.16966721217846628
442	14.518365991263648	0.11993147096037228
444	13.283519524370057	0.20720294127361738
446	12.10111682236979	0.10542182183592783
448	11.014263109572843	0.06974740564575148
450	10.053268459911017	0.08132142717148061
452	9.272297921243746	0.05237890257111594
454	8.580988579262913	0.07071361740559219
456	7.965014257567474	0.061329825076702316
458	7.382447574967602	0.03299311226072724
460	6.914154345055959	0.03783270053760017
462	6.495345911500874	0.023629615382931814
464	6.130816431128497	0.021896976075459422
466	5.804750846253533	0.022636870364958882
468	5.5074385709781	3.5131114620363385e-15
470	5.235574538069625	0.0213130987811592
472	4.990170263143908	0.020426891427407102
474	4.772239037626574	0.025285849375590575
476	4.573376331758681	0.024447455196646328
478	4.379738917522603	0.023507281089056635
480	4.201187424481766	0.014350048115731389
482	4.047307206358405	0.01392323800296545
484	3.9160220688089833	0.019284595287071413
486	3.798952639767593	0.01647422948015486
488	3.699219255241919	0.009058843135819974
490	3.600857142989629	0.02427494064686746
492	3.5205797573877757	0.02198259628461673
494	3.4474281528458235	0.02531668860203438
496	3.374175411775129	0.008783219105318351
498	3.3182469209373924	0.0229918970252953
500	3.2572608025090326	0.012349849802877164
502	3.204813704725827	0.012319551105017855
504	3.1648937899841365	0.016998076989207935
506	3.1342394277659977	0.022390424546396146
508	3.1227297996424936	0.019176566567561466
510	3.133669416295017	0.02256870602242942
512	3.1738278866128997	0.012260887781074665
514	3.262325963019222	0.019411410691137467
516	3.4021042212058155	0.023569308186359456
518	3.6085167173945387	0.015987652357079996
520	3.875430308319309	0.016846567529061305
522	4.243202123521127	0.017950289669248446
524	4.691321341506715	0.02996953588078545
526	5.217937194231659	0.01533392029393729
528	5.83597035050219	0.01993153978790451
530	6.495120528026223	0.035364914049601265
532	7.147790820609057	0.044642857142856984
534	7.759795902743119	0.03212229317855015
536	8.235391235767617	0.0397802436290895
538	8.626117594639505	0.05190492484692908
540	8.853693310735759	0.021990391157914985
542	8.872039426059743	0.03571238778492454
544	8.676810202803642	0.026266577749814418
546	8.301053896612432	0.02090193194067034
548	7.780583945983953	0.03376902593807831
550	7.240225774115714	0.035682255557818135
552	6.71773479376538	0.024708285414676755
554	6.268322299042867	0.025784148658801773
556	5.9095196837917925	0.02825635381867221
558	5.676576770834139	0.020210627859613795
560	5.584821755171483	0.025228845351547673
562	5.628604607009549	0.015855298860594943
564	5.830897760253525	0.03460967331690046
566	6.179035189565677	0.0431009662135538
568	6.675747910811224	0.030645336378780703
570	7.296852732320805	0.0278464760059309
572	7.980622623248053	0.046329376646396754
574	8.590382085257565	1.3857222476540318e-15
576	8.874914883341107	0.02172188940234582
578	8.627633057274918	0.04011591531977821
580	7.813126650997369	0.019984011627868947
582	6.6704759960105235	0.021834061135370716
584	5.411961570190221	0.027119672039036438
586	4.328420853936271	0.03213957309915036
588	3.3695315064395515	0.0238785563647298
590	2.578012750811854	0.013689361835808444
592	1.933140556609632	0.01726425327561174
594	1.4340743673984537	0.014654021984252981
596	1.0678720884932211	0.01314611543037231
598	0.8108227497049433	0.012546974554030576
600	0.6380729016352517	0.014130514596196424
602	0.5185480303376269	0.01784571224214191
604	0.4231827805308958	0.022246893150471805
606	0.3520883695332746	0.019837106293201106
608	0.3022927280931309	0.014714165688719754
610	0.2589721709287807	0.014648716317020517
612	0.22760968984259722	0.012977313049397685
614	0.20053169507507898	0.01302244648165083
616	0.1811132530456833	0.017185305825272265
618	0.16685883068927435	0.01117431354569588
620	0.1528437777628143	0.0182344404893589
622	0.14264610983961903	0.03030481037132727
624	0.13240861239087773	0.036909051257499784
626	0.12340319145202137	0.03911810221273637
628		
630		
632		
634	0.10248860040527381	0.018084428013507712
636	0.09015683376560939	0.026475696980455554
638	0.08611328672295428	0.018106376412822908
640		
642	0.08598994295868523	0.01107312995919225
644	0.08841060862718626	0.02774819437133644
646		
648		
650		
652	0.07849041445029949	0.022106052813277804
654	0.06742408535182363	0.01560299348484968
656		
658		
660		
662		
664	0.06857102520071628	0.01909991430703774
666	0.061218463501140075	0.012723013721503862
668		
670		
672	0.05759438305472061	0.014232778575383465
674		
676		
678		
680		
682		
684		
686	0.060103996654469034	0.019155314669002436
688		
690		
692		
694		
696	0.053869056897241495	0.0142327884866853
698	0.06002196794755587	0.015622983245228947
700	0.05762186803429703	0.01425375145779821
702	0.06251667122874964	0.017998831167850237
704		
706	0.06615511540200292	0.016860311569059084
708	0.06133246241550299	0.015625885951729115
710	0.0686412798927816	0.018046027140103713
712	0.06740022857551221	0.016878002293809098
714	0.07102741300433323	0.0180095872068538
716	0.06617672999310566	0.019124788683402637
718		
720		
722	0.06997803762464912	0.01106080076408977
724	0.07719208295294577	0.0168737409557791
726	0.0771637188658501	0.01681532739529743
728	0.07837506960451436	0.02464136669474228
730		
732		
734	0.07597266694164305	0.022045782917518072
736		
738		
740		
742	0.08480493719330427	0.02022728624875462
744	0.08733940425236165	0.015633771123557575
746	0.08743666013161226	0.020181793896966543
748	0.0862519180097417	0.025648772884343786
750	0.0911465473630162	0.027924631101239442
752	0.09356984876869688	0.03067543368455849
754	0.09588730778652725	0.016931773982957768
756	0.09098212863067173	0.021223760499932694
758	0.09707590031246172	0.02700192590973519
760		
762		
764		
766		
768		
770	0.10235840498233843	0.030069348969076745
772		
774	0.1134299296777636	0.02926456075147136
776	0.11461002688978705	0.03264531860200125
778	0.10716460228144493	0.027889615970929482
780	0.11326050314753065	0.03430976515362446
782	0.11944010638386264	0.02213656129909812
784	0.1146693052695129	0.03071796338248577
786	0.11479624541417933	0.03200402357356268
788	0.11138693431548512	0.022254860974018204
790	0.11631390983684968	0.02573088346107022
792	0.12997929748566975	0.027370667186120575
794	0.1335534037057905	0.0401361064784342
796	0.12987050889684373	0.033343268422269645
798		
800	0.1457686492728134	0.033291042479694756
802	0.1432266053527585	0.04525037010687629
804	0.12716989868882697	0.02786470880229769
806		
808	0.1297851342893437	0.03514431132842608
810	0.1372039011176889	0.03204746478625466
812	0.14974422815501506	0.037900830577774144
814	0.1433354771682721	0.034489303214749134
816	0.13592129917601484	0.03403733589632566
818	0.12749353724316373	0.04162196693824123
820	0.13129099361843402	0.03471610702615851
822	0.13888019043717806	0.03228101561644613
824	0.15363629447244	0.048571557213307304
826		
828	0.155102054000865	0.05041654861653669
830	0.14404219657317918	0.044776560396787145
832	0.15234099638673002	0.0454370491921929
834	0.14859686615863024	0.04315770839179659
836	0.15726773669310953	0.039197713081416376
838	0.1466982524421645	0.04184419170955938
840		
842	0.15501539021465266	0.04890341581129982
844		
846		
848		
850		
852		
854		
856		
858		
860		
862		
864		
866		
868		
870		
878		
886		
892		
894		
896		
898		
900		
902		
904		
906		
908		
910		
912		
914		
916		
918		
920		
922		
924		
926		
928		
930		
932		
934		
936		
938		
940		
942		
944		
946		
948		
950	0.20611382221182062	0.051103839152468016
952	0.1999310943144701	0.03940584818602141
954	0.19607328859254633	0.026773126394911747
956	0.19607758071112893	0.02678223793312571
958	0.19733664727990374	0.011283974326370266
960	0.19602702041127631	0.01453802443935967
962	0.19723747112289325	0.012973590548486508
964	0.1984969962968941	0.01120255925942277
966	0.1984721935205005	0.00908227752286023
968	0.1960003110688222	0.009085644446525916
970	0.19970836387894197	0.006419758367564042
972	0.19842504343996056	0.009163359014601915
974	0.197166469389391	0.006417379798328193
976	0.197166469389391	0.006417379798328193
978	0.19714031141315116	0.006550872948445632
980	0.19714031141315116	0.006550872948445632
982	0.19461887911944856	0.009262582242882466
984	0.1908383988333636	2.737922401080046e-15
986	0.19081601189927314	0.009161502421469927
988	0.18832267544351014	0.006533575283172482
990	0.19324225449096666	0.006417379798328193
992	0.18946415471030684	0.011259834199018465
994	0.18694653122707883	0.009163359014601915
996	0.1869004169852587	0.009151233038416069
998	0.18562236761602183	0.006410254654214577
1000	0.18683203377702276	0.009156507317959464
1002	0.18557440941449657	0.009154747572928308
1004	0.1818015359688845	0.00915474757292831
1006	0.17803434563387788	0.00914422373432818
1008	0.17678003392262123	0.006412627943608954
1010	0.17799066609543882	0.006528649858909833
1012	0.1753899916069175	0.011158976786340336
1014	0.17785547562843307	0.006513918042756771
1016	0.17658217946755891	0.006405513341601424
1018	0.17030778719780748	0.009139235839485171
1020	0.16905347548655106	0.006405513341601424
1022	0.17271120610629076	0.006504133712237247
1024	0.16393950858847325	0.0
1026	0.16763295310301216	0.0
1028	0.1613764581814443	0.009201689492047478
1030	0.15883277937041126	0.009048724576221051
1032	0.16375646250903744	1.957780813333479e-15
1034	0.1587580220025512	0.006499252561234617
1036	0.15496577970177142	0.0063889738383217445
1038	0.15619511157384075	3.3723247523801605e-15
1040	0.15120228624676255	0.006491944556104868
1042	0.14741707238845927	0.0063889738383217445
1044	0.14985962389586524	0.009098099201933588
1046	0.1423575837909496	0.00648222607623046
1048	0.14479558987550603	3.878783475811442e-15
1050	0.13856715206741058	0.009160395447955823
1052	0.13726800585170332	1.925295512227282e-15
1054	0.13970927034322284	0.0064628761476456156
1056	0.13098050161272345	0.006377212104450584
1058	0.13343418838772955	2.7350625978582665e-15
1060	0.1271551449151708	0.006377212104450584
1062	0.1296088316901769	4.3187440654021066e-15
1064	0.12216003901879097	4.316786868212454e-15
1066	0.12211070892151255	3.3397726646237876e-15
1068	0.12211070892151255	3.3397726646237876e-15
1070	0.11462596230924758	0.009007133175162498
1072	0.11830220778917756	2.7470895519765205e-15
1074	0.1121075705606478	0.006431677710986924
1076	0.1108249547059154	0.0
1078	0.1108249547059154	0.0
1080	0.10336012080567848	1.9360034961662548e-15
1082	0.10703321575953383	1.9360034961662548e-15
1084	0.09590767845442712	2.737922401080046e-15
1086	0.09957673037504651	3.3410051731466083e-15
1088	0.09831698420717128	0.012774871440742679
1090	0.0958016609182601	3.837939252683339e-15
1092	0.0958016609182601	3.837939252683339e-15
1094	0.09209909982519697	0.009067147394579735
1096	0.08592294456967386	0.006349159851791711
1098	0.08836584195518278	3.846448939469912e-15
1100	0.0907771110947833	0.0063468332999955255
1102	0.08460734996818153	0.0
1104	0.08460734996818153	0.0
1106	0.08337574702295543	0.006398414508935274
1108	0.0808814534359785	1.91050180357131e-15
1110	0.07719209685200723	2.7123384653932374e-15
1112	0.07719209685200723	2.7123384653932374e-15
1114	0.07473207214010512	0.0063889738383217445
1116	0.07591548455318987	0.0063398638637217385
1118	0.07467806422938765	0.00638191159752682
1120	0.07345009098531598	4.285274441987667e-15
1122	0.07345009098531598	4.285274441987667e-15
1124	0.06976481329281807	3.8284218986091645e-15
1126	0.06484438325870374	0.008987435258229294
1128	0.06361776564289996	0.0063352260701134795
1130	0.06605530383805465	3.315184724406463e-15
1132	0.06605530383805465	3.315184724406463e-15
1134	0.06603914340372768	0.008985802615441723
1136	0.06479591973417248	0.008987435258229294
1138	0.06233641209581053	0.008980815856076003
1140	0.06232969340633183	2.7167684752438874e-15
1142	0.06232969340633183	2.7167684752438874e-15
1144	0.06232969340633183	2.7167684752438874e-15
1146	0.05987781147648404	0.006367833851356709
1148	0.05865164507187762	0.009007133175162498
1150	0.05987064749326632	0.006328282088303905
1152	0.05986213711437725	0.008977585797748338
1154	0.05986213711437725	0.008977585797748338
1156	0.05863642158913587	0.008975924166223144
1158	0.05619395080286833	0.01100391768763772
1160	0.05741966632810971	0.011005273126753843
1162	0.058644481088659904	0.008979214568422813
1164	0.058644481088659904	0.008979214568422813
1166	0.05865254649914007	1.92104541175879e-15
1168	0.06232969340633183	2.7167684752438874e-15
1170	0.0635549583836758	0.006367833851356709
1172	0.0635549583836758	0.006367833851356709
1174	0.06478067390891717	0.006370175827763976
1176	0.06723345792932715	0.006374864952406252
1178	0.07214173489870611	0.006377212104450584
1180	0.0684941795435675	0.008959362629054087
1182	0.06850135930661465	0.008987435258229294
1184	0.06728192145385821	0.006374864952406252
1186	0.06728192145385821	0.006374864952406252
1188	0.06973832048420492	0.009022069011454192
1190	0.06973832048420492	0.009022069011454192
1192	0.07096719914635612	0.006374864952406252
1194	0.06974058153055256	3.833694375708693e-15
1196	0.07096719914635612	0.006374864952406252
1198	0.07096719914635612	0.006374864952406252
1200	0.07342224154963038	0.009022063503644739
1202	0.07465066733590542	0.009023727628379278
1204	0.07465066733590542	0.009023727628379278
1206	0.07588852074536191	0.006332909716888574
1208	0.07588852074536191	0.006332909716888574
1210	0.07345009098531598	4.285274441987667e-15
1212	0.07466952883807242	0.0063352260701134795
1214	0.07345009098531598	4.285274441987667e-15
1216	0.07345009098531598	4.285274441987667e-15
1218	0.07345009098531598	4.285274441987667e-15
1220	0.07345009098531598	4.285274441987667e-15
1222	0.07345953873276131	0.009000714444825168
1224	0.0722491093012827	0.01101209813194833
1226	0.07596321818985602	0.006384263942383998
1228	0.07719209685200723	2.7123384653932374e-15
1230	0.07719209685200723	2.7123384653932374e-15
1232	0.0759722127273832	0.0063398638637217385
1234	0.08337574702295543	0.006398414508935274
1236	0.08216445258267263	0.006349159851791711
1238	0.07850937257924187	0.006403145314488077
1240	0.08836584195518278	3.846448939469912e-15
1242	0.08470037593930461	0.008982362438073033
1244	0.09213260899764071	3.3262112402298017e-15
1246	0.08723964175821004	0.006360818242999555
1248	0.09713024642586614	0.008990606924216936
1250	0.098413603930186	0.011126224363728105
1252	0.09968702585182314	1.9360034961662548e-15
1254	0.10592659477471601	0.006367833851356709
1256	0.11094791397479437	3.863590552149329e-15
1258	0.12088544394416834	0.006367833851356709
1260	0.124701006264197	0.006374864952406252
1262	0.13220757077192613	0.006374864952406252
1264	0.13726800585170332	1.925295512227282e-15
1266	0.14356761663143458	0.00638191159752682
1268	0.1498766435560334	0.006391331393243636
1270	0.15496577970177142	0.0063889738383217445
1272	0.16252576899927254	0.006396051726620305
1274	0.16519099474296497	0.006504133712237247
1276	0.17655564637912416	0.011161910149840987
1278	0.1867133418059873	4.352842597566906e-15
1280	0.18941424314763902	0.00915474757292831
1282	0.1996565055127538	0.009264333369074838
1284	0.20858937142215148	0.006424520799588372
1286	0.21258788309031315	0.0065657725836572355
1288	0.2241373421179805	0.006580740150337306
1290	0.23309470643807628	2.8098084915193635e-15
1292	0.23707608119012172	3.3902821248512228e-15
1294	0.24230758898749313	0.006448439343145117
1296	0.24630679210014703	0.006448439343145117
1298	0.2552808077187061	0.006453244439526003
1300	0.25929794052168803	0.006453244439526003
1302	0.26705333255039004	0.006460465526180623
1304	0.2646314585284261	0.009261442865337595
1306	0.2698783187669793	0.00663875357442997
1308	0.27758631296968744	0.009275757728141612
1310	0.273990078353661	0.011416978688538483
1312	0.2817094261749626	0.006654056118205067
1314	0.2857341171306182	0.006477377739599944
1316	0.2883721121365254	0.01324010916149305
1318	0.29229786662077867	3.9352710518524075e-15
1320	0.2910876256029193	0.009307790193649877
1322	0.3001175770927087	3.968285343545169e-15
1324	0.29762303387682537	0.00916725203137365
1326	0.2964138132665084	0.01134852352704422
1328	0.3002725850470832	0.011343971191582808
1330	0.3003096437872793	0.009309637644301448
1332	0.3003096437872793	0.009309637644301448
1334	0.30034719829005657	2.8488336094571307e-15
1336	0.29909852499081907	0.006489512205203368
1338	0.2966007104615495	0.009179276266733838
1340	0.29667645856694796	0.009314718089200468
1342	0.29667645856694796	0.009314718089200468
1344	0.2954263804224132	0.01135660929785292
