nm,mua[cm-1],mua_std[cm-1],mus[cm-1],mus_std[cm-1],mus_fit[cm-1],musp[cm-1],musp_std[cm-1],assumed_g
450.0,2.616,0.022528993664954384,1.536000000000169,255.29152930777207,957.7782638097909,0.0003072,0.05105830586154878,0.9998
452.0,2.36,0.02449993701176084,614.0000000000675,170.07934749536997,944.9973867415094,0.12279999999999999,0.034015869499070255,0.9998
454.0,2.161,0.04533193548702718,698.0000000000769,200.89297202975118,932.3870614854858,0.1396,0.04017859440594581,0.9998
456.0,2.098,0.06073044952904593,449.7000000000495,263.30696196595,919.945012147781,0.08993999999999999,0.0526613923931842,0.9998
458.0,1.937,0.03344315242982403,692.5000000000762,147.1322353917142,907.6689932046588,0.13849999999999998,0.0294264470783396,0.9998
460.0,1.825,0.042242100583758754,737.0000000000812,129.49226012431188,895.5567890973166,0.1474,0.025898452024859527,0.9998
462.0,1.7145,0.019321835661585855,701.7500000000773,65.1392205630102,883.6062138320264,0.14035,0.013027844112600604,0.9998
464.0,1.6600000000000001,0.022193314531104662,644.500000000071,164.29154321767587,871.8151105856074,0.12890000000000001,0.03285830864353156,0.9998
466.0,1.5890000000000002,0.023916521486202772,759.0000000000837,110.22022679646604,860.1813513161674,0.15180000000000002,0.022044045359290776,0.9998
468.0,1.5060000000000002,0.03625050020940534,764.5000000000842,214.83895662556358,848.7028363790362,0.1529,0.04296779132510798,0.9998
470.0,1.429,0.018928436657202174,776.0000000000855,72.7651379860137,837.3774941478233,0.1552,0.014553027597201139,0.9998
472.0,1.384,0.020208786745581606,676.5000000000746,84.71120146900626,826.2032806405365,0.1353,0.016942240293799385,0.9998
474.0,1.3339999999999999,0.025930581592559655,731.0000000000805,88.55552070263775,815.1781791506836,0.1462,0.0177111041405256,0.9998
476.0,1.258,0.02612363765719549,779.5000000000857,94.34278842814125,804.3001998833032,0.15589999999999998,0.018868557685626175,0.9998
478.0,1.2305000000000001,0.014422205101855993,710.5000000000782,119.28633356341845,793.5673795958462,0.1421,0.023857266712681065,0.9998
480.0,1.189,0.015834594248038094,777.5000000000855,121.91687213401092,782.9777812438549,0.15549999999999997,0.024383374426799498,0.9998
482.0,1.168,0.015979925678530484,682.000000000075,76.95453203029243,772.5294936313674,0.1364,0.01539090640605679,0.9998
484.0,1.1360000000000001,0.023939739161300672,728.5000000000803,87.43381976962837,762.2206310659861,0.1457,0.017486763953923748,0.9998
486.0,1.087,0.017164419126513328,696.0000000000766,86.67215082364531,752.0493330185529,0.1392,0.01733443016472715,0.9998
488.0,1.056,0.024256855973691142,940.0000000001036,169.54825599550543,742.0137637873614,0.188,0.03390965119909735,0.9998
490.0,1.0430000000000001,0.019084606944399507,739.0000000000813,47.71895603879659,732.1121121668534,0.1478,0.009543791207758267,0.9998
492.0,1.0150000000000001,0.02297592943350354,762.000000000084,103.74705112573717,722.3425911207349,0.1524,0.02074941022514515,0.9998
494.0,0.9954000000000001,0.01591499021615304,763.000000000084,55.99509458233497,712.703437459453,0.15259999999999999,0.011199018916465762,0.9998
496.0,0.9787,0.016401543137276788,608.0000000000671,111.51826734046769,703.1929115219798,0.12160000000000001,0.02230365346809108,0.9998
498.0,0.9612999999999999,0.014514284151980921,699.500000000077,67.64285295252238,693.809296861839,0.1399,0.013528570590502982,0.9998
500.0,0.9400999999999999,0.011919741897943079,672.5000000000741,46.55224066692804,684.550899937326,0.1345,0.009310448133384584,0.9998
502.0,0.9495,0.01664485239078771,671.0000000000738,61.322915781955686,675.4160498058573,0.13419999999999999,0.012264583156389787,0.9998
504.0,0.9209,0.012152000292590169,668.0000000000736,64.49452077407396,666.4030978224035,0.1336,0.012898904154813371,0.9998
506.0,0.9227000000000001,0.016168487869927712,678.5000000000748,104.82839798782473,657.5104173419436,0.13570000000000002,0.020965679597562636,0.9998
508.0,0.9033,0.014086829502485609,684.5000000000755,44.74005855501997,648.7364034258884,0.13690000000000002,0.008948011711003005,0.9998
510.0,0.9228999999999999,0.014676419316393801,674.0000000000742,60.55214057649715,640.0794725524269,0.1348,0.012110428115298093,0.9998
512.0,0.9291,0.012714480905304719,655.0000000000722,43.38778629983807,631.5380623307307,0.131,0.008677557259966657,0.9998
514.0,0.9557,0.02040408455840808,608.5000000000671,56.6284729673862,623.110631218979,0.1217,0.011325694593475993,0.9998
516.0,0.9836,0.014130354333145618,604.0000000000665,81.09401874703619,614.795658246142,0.1208,0.01621880374940545,0.9998
518.0,1.035,0.014530512808195586,583.5000000000642,98.63972636461484,606.5916427374773,0.1167,0.019727945272920797,0.9998
520.0,1.1179999999999999,0.02123646991194602,573.5000000000631,89.321182147622,598.4971040436923,0.1147,0.017864236429522434,0.9998
522.0,1.223,0.017957425645188374,414.55000000004566,90.09604134848797,590.510581273716,0.08291,0.018019208269695608,0.9998
524.0,1.3370000000000002,0.014808239281470402,565.5000000000623,34.93142841852155,582.6306330310422,0.1131,0.006986285683703537,0.9998
526.0,1.4929999999999999,0.020381063640105702,377.0000000000415,81.45763954852725,574.8558371535867,0.0754,0.01629152790970366,0.9998
528.0,1.6270000000000002,0.025614424948300143,419.1500000000462,76.13820199131587,567.1847904570169,0.08383,0.015227640398261494,0.9998
530.0,1.7935,0.0024999999999999467,397.60000000004374,18.950000000002092,559.6161084815093,0.07952,0.0037900000000000017,0.9998
532.0,1.9515000000000002,0.030723565873771824,270.30000000002974,77.11896425937533,552.1484252418811,0.05406,0.015423792851873367,0.9998
534.0,2.1479999999999997,0.016438437341250594,180.25000000001984,120.97461106580026,544.780392981062,0.03605,0.02419492221315739,0.9998
536.0,2.2270000000000003,0.0,1.3595000000001498,0.0,537.5106819268508,0.0002719,0.0,0.9998
538.0,2.274,0.028704689227954903,262.05000000002883,69.163619226374,530.337980051921,0.05241,0.013832723845273277,0.9998
540.0,2.347,0.040569898529164025,309.05000000003406,126.81219517587154,523.2609928370279,0.061810000000000004,0.025362439035171512,0.9998
542.0,2.3345,0.02751161370928438,204.17500000002252,81.29649139963144,516.2784430373747,0.040835,0.01625929827992449,0.9998
544.0,2.324,0.014623269128344584,263.70000000002904,56.05916160629493,509.38907045209857,0.05274,0.011211832321257751,0.9998
546.0,2.239,0.009499731467740798,376.0500000000414,194.1761439263079,502.5916316968298,0.07521,0.0388352287852573,0.9998
548.0,2.141,0.0,263.900000000029,0.0,495.88489997928883,0.052779999999999994,0.0,0.9998
550.0,1.968,0.02562046375976255,242.2000000000267,66.97130896503953,489.267664877876,0.048440000000000004,0.013394261793006429,0.9998
552.0,1.8090000000000002,0.017682382946499754,379.9500000000419,180.17102658590576,482.7387321232155,0.07599,0.03603420531717719,0.9998
554.0,1.6995,0.011155155758661557,344.62500000003797,58.02103605590599,476.2969233826173,0.068925,0.01160420721117992,0.9998
556.0,1.6059999999999999,0.024225134527121637,370.65000000004085,84.93786324276404,469.9410760474107,0.07413,0.01698757264855094,0.9998
558.0,1.5539999999999998,0.036165130535733815,204.22500000002248,150.29412737881853,463.6700430231212,0.040845,0.0300588254757604,0.9998
560.0,1.53,0.013499629624548903,345.55000000003804,138.23992623411738,457.48269252244154,0.06910999999999999,0.02764798524682042,0.9998
562.0,1.557,0.011728408057172832,360.60000000003964,112.98832043870004,451.37790786097094,0.07211999999999999,0.02259766408773752,0.9998
564.0,1.617,0.008000000000000007,144.98945000001598,144.76055000001597,445.3545872556759,0.028997890000000002,0.028952110000000003,0.9998
566.0,1.6769999999999998,0.023133002452538187,247.40000000002726,71.72504986250557,439.41164362604195,0.04948,0.014345009972499531,0.9998
568.0,1.8179999999999998,0.03682778454218658,155.20000000001707,125.91807634768305,433.54800439787994,0.031039999999999998,0.02518361526953384,0.9998
570.0,2.027,0.023844496220302047,134.3500000000148,102.68761166694999,427.76261130974785,0.02687,0.02053752233338774,0.9998
572.0,2.1900000000000004,0.030999999999999917,83.31000000000917,76.44000000000841,422.05442022195865,0.016662,0.015288,0.9998
574.0,2.3400000000000003,0.0256857937389522,1.169500000000129,72.09171556036203,416.422400928135,0.00023390000000000002,0.01441834311207082,0.9998
576.0,2.5084999999999997,0.0015000000000000568,0.04232750000000467,0.002152500000000241,410.86553696927785,8.4655e-06,4.3050000000000037e-07,0.9998
578.0,2.415,0.032293790252754306,120.70000000001329,26.19936385996459,405.38282545031956,0.024139999999999998,0.005239872771992339,0.9998
580.0,2.283,0.02640757467091599,245.80000000002707,78.44948310856711,399.97327685912046,0.04916,0.01568989662171169,0.9998
582.0,1.9875,0.011291589790636249,232.05000000002553,34.77798109077445,394.63591488788495,0.04640999999999999,0.006955596218154126,0.9998
584.0,1.656,0.014780701465169646,282.80000000003116,51.81749490064499,389.369776256958,0.05656,0.010363498980127856,0.9998
586.0,1.317,0.022235950620560437,336.45000000003705,137.40733026307768,384.1739105409733,0.06729,0.027481466052612508,0.9998
588.0,1.007,0.01204108194146136,423.1500000000466,50.911181434556205,379.04737999732305,0.08463,0.01018223628691012,0.9998
590.0,0.7847,0.008513794181093673,377.3500000000415,55.308860049730505,373.9892593969141,0.07547,0.011061772009944884,0.9998
592.0,0.5902000000000001,0.010153926443608985,497.7500000000548,48.58236483375451,368.9986358571854,0.09955,0.00971647296674983,0.9998
594.0,0.46559999999999996,0.014645978675323293,492.2000000000542,63.62170314532616,364.07460867735057,0.09844,0.01272434062906383,0.9998
596.0,0.37420000000000003,0.011045059227244242,498.0000000000548,54.01455965127949,359.2162891758422,0.0996,0.010802911930254707,0.9998
598.0,0.3115,0.008342395073092344,504.5000000000556,43.72443450566204,354.4228005299225,0.1009,0.008744886901131442,0.9998
600.0,0.26349999999999996,0.00954148835350125,571.0000000000629,47.407840420481364,349.69327761743676,0.1142,0.00948156808409523,0.9998
602.0,0.2351,0.011050903543864746,512.0000000000564,53.19558484417858,345.0268668606766,0.1024,0.010639116968834546,0.9998
604.0,0.2181,0.007277175547602059,545.00000000006,42.397327687746134,340.42272607232786,0.109,0.008479465537548293,0.9998
606.0,0.2004,0.008989719780304332,502.0000000000553,40.30022592836052,335.8800243034726,0.1004,0.008060045185671215,0.9998
608.0,0.1956,0.007611070559502684,533.5000000000588,38.77435514981883,331.3979416936225,0.1067,0.007754871029962912,0.9998
610.0,0.1768,0.010340188884775727,463.70000000005103,83.28901821703197,326.97566932275043,0.09273999999999999,0.016657803643404558,0.9998
612.0,0.17520000000000002,0.007134423592694783,529.0000000000583,54.34589379925732,322.61240906529775,0.1058,0.010869178759850266,0.9998
614.0,0.1679,0.004873536500806308,482.80000000005316,33.771405648957284,318.3073734461301,0.09655999999999999,0.006754281129790713,0.9998
616.0,0.16729999999999998,0.010171201174558154,506.50000000005576,58.74932991475614,314.05978549841427,0.1013,0.011749865982949931,0.9998
618.0,0.14959999999999998,0.00793152796139994,503.50000000005554,61.51048440192012,309.86887862339313,0.10070000000000001,0.01230209688038267,0.9998
620.0,0.1416,0.010619839342208571,532.5000000000587,57.716818269130556,305.73389645203065,0.1065,0.01154336365382484,0.9998
622.0,0.1495,0.00891465709442103,480.600000000053,64.22123845844699,301.65409270850336,0.09612000000000001,0.012844247691687986,0.9998
624.0,0.1447,0.00781329983560004,437.7000000000482,64.8270819608324,297.62873107551377,0.08753999999999999,0.012965416392165053,0.9998
626.0,0.14529999999999998,0.009044717440597401,444.4000000000489,56.76050617928902,293.65708506140004,0.08888,0.01135210123585655,0.9998
628.0,0.1411,0.0130466778326567,472.550000000052,72.68641975833665,289.73843786902114,0.09451,0.01453728395166573,0.9998
630.0,0.1384,0.009973087241962861,494.5000000000544,63.0515152890697,285.87208226638927,0.09889999999999999,0.012610303057812548,0.9998
632.0,0.1381,0.009067034306271878,483.2500000000532,66.69783438097593,282.05732045902994,0.09665,0.013339566876193714,0.9998
634.0,0.14279999999999998,0.011846706058835282,474.20000000005217,65.13583574935048,278.2934639640452,0.09484,0.013027167149868664,0.9998
636.0,0.1324,0.010280293986284852,500.5000000000551,59.73531432727682,274.57983348585634,0.1001,0.01194706286545405,0.9998
638.0,0.1349,0.010818502669038816,433.6500000000478,79.91876701369374,270.9157587936069,0.08673,0.015983753402736986,0.9998
640.0,0.13570000000000002,0.010329545303295757,376.60000000004146,59.965309930513335,267.30057860019934,0.07532,0.011993061986101342,0.9998
642.0,0.13570000000000002,0.00991205775249967,390.60000000004305,65.54523035449009,263.73364044294726,0.07812000000000001,0.013109046070896573,0.9998
644.0,0.1363,0.008082231692781551,381.450000000042,72.02563244009873,260.21430056581994,0.07629,0.014405126488018161,0.9998
646.0,0.1416,0.007570866838834118,361.80000000003986,29.25040466112726,256.74192380325724,0.07236000000000001,0.005850080932224806,0.9998
648.0,0.1283,0.008243381183309025,398.8500000000439,70.33594562465673,253.31588346553738,0.07977,0.014067189124929798,0.9998
650.0,0.1374,0.007220358733948999,334.1500000000368,46.56423149072115,249.93556122567156,0.06683,0.009312846298143204,0.9998
652.0,0.1365,0.010231626109250982,361.50000000003985,36.379082648154835,246.6003470078098,0.0723,0.007275816529630164,0.9998
654.0,0.1355,0.009231080083401554,379.0000000000418,53.42391324279296,243.30963887713517,0.0758,0.010684782648557416,0.9998
656.0,0.1367,0.01046349326745254,381.500000000042,64.00975957608777,240.0628429312268,0.07629999999999999,0.012801951915216141,0.9998
658.0,0.1463,0.005458734081980711,306.35000000003373,46.821006681479524,236.8593731928745,0.06127,0.009364201336294875,0.9998
660.0,0.1362,0.009439135762908446,370.30000000004077,68.33886156500584,233.69865150432128,0.07406,0.01366777231299966,0.9998
662.0,0.1404,0.010970510414991273,399.20000000004393,47.20019486254499,230.58010742291893,0.07984,0.009440038972507957,0.9998
664.0,0.1443,0.005832857123419217,359.5000000000396,32.23078238785962,227.5031781181745,0.0719,0.006446156477571216,0.9998
666.0,0.1384,0.0078027060832907315,362.10000000003987,48.657875918389735,224.46730827017248,0.07242,0.009731575183676873,0.9998
668.0,0.1414,0.007866729441055249,314.70000000003466,46.35992309243271,221.47194996935082,0.06294,0.00927198461848552,0.9998
670.0,0.1343,0.003417312495420641,358.1000000000395,27.5868303702457,218.51656261761494,0.07162,0.005517366074048533,0.9998
672.0,0.1349,0.008997407033881116,355.2500000000391,59.37237063704383,215.60061283077184,0.07105,0.011874474127407459,0.9998
674.0,0.1367,0.005533154838709629,350.75000000003865,26.768694863431715,212.72357434226467,0.07015,0.005353738972685755,0.9998
676.0,0.1347,0.007425348642934946,365.95000000004035,58.02063543088106,209.88492790819402,0.07319,0.011604127086174934,0.9998
678.0,0.1363,0.00898258946964888,332.05000000003656,48.595761386070265,207.08416121360492,0.06641,0.009719152277212983,0.9998
680.0,0.1384,0.006986671614360699,357.05000000003935,44.8773169902943,204.32076878002488,0.07141,0.008975463398057871,0.9998
682.0,0.1523,0.005352696332194773,311.2500000000343,22.62068866227703,201.5942518742363,0.06225,0.004524137732454907,0.9998
684.0,0.1418,0.004871712250011651,315.2500000000347,33.33690814164818,198.90411841826494,0.06305,0.006667381628328904,0.9998
686.0,0.1396,0.007558038807606375,316.45000000003483,39.90289911804708,196.24988290057135,0.06329,0.007980579823608537,0.9998
688.0,0.1468,0.0049598387070548915,301.95000000003324,48.95104949757573,193.63106628842584,0.06039,0.009790209899514067,0.9998
690.0,0.14279999999999998,0.00833992332025027,277.60000000003055,37.51986963309256,191.04719594145354,0.05552,0.007503973926617685,0.9998
692.0,0.1424,0.007199039716483463,305.6500000000337,41.03718578660483,188.49780552633294,0.061130000000000004,0.008207437157320063,0.9998
694.0,0.1399,0.0039313554349048084,306.40000000003374,42.36642261782902,185.9824349326321,0.06128,0.00847328452356487,0.9998
696.0,0.1512,0.008214621111165141,290.750000000032,52.69991097985424,183.5006301897696,0.05815,0.01053998219596969,0.9998
698.0,0.137,0.005991557846845742,296.2000000000326,47.496298751189286,181.05194338508193,0.059239999999999994,0.009499259750236811,0.9998
700.0,0.1345,0.010162725404846924,289.4500000000319,55.63154081394849,178.63593258298476,0.05789,0.011126308162788472,0.9998
702.0,0.1476,0.00799334599819834,284.55000000003133,51.448410574262326,176.2521617452136,0.05691,0.010289682114851331,0.9998
704.0,0.1527,0.007284043104664967,290.450000000032,48.97632648082218,173.90020065212713,0.05809,0.009795265296163357,0.9998
706.0,0.1454,0.008250387196301086,323.85000000003566,56.733683138589235,171.57962482506304,0.06477,0.011346736627716599,0.9998
708.0,0.1409,0.006961658664285739,275.45000000003034,35.617568317331624,169.29001544972792,0.05509,0.00712351366346554,0.9998
710.0,0.1479,0.009587272942246712,298.50000000003286,64.35510857733762,167.03095930061048,0.059699999999999996,0.012871021715466106,0.9998
712.0,0.1456,0.005448501889465226,299.100000000033,43.17346149868212,164.80204866640324,0.059820000000000005,0.008634692299735474,0.9998
714.0,0.1395,0.00769999198332114,262.6500000000289,43.41099095624153,162.60288127641888,0.05253,0.008682198191247352,0.9998
716.0,0.1499,0.008978616572476837,276.40000000003045,47.691368890682604,160.43306022798978,0.055279999999999996,0.00953827377813547,0.9998
718.0,0.1542,0.007262656045793865,246.15000000002712,51.57415911955788,158.29219391483505,0.04923,0.01031483182391044,0.9998
720.0,0.1537,0.008518143308966974,213.95000000002355,53.83806996706342,156.17989595638417,0.042789999999999995,0.010767613993411498,0.9998
722.0,0.1519,0.005559132182030206,295.70000000003256,35.769364952932605,154.09578512804316,0.05914,0.007153872990585735,0.9998
724.0,0.14300000000000002,0.005596317131122822,234.70000000002585,42.10635197382457,152.03948529239244,0.04694,0.008421270394763987,0.9998
726.0,0.1507,0.005640746820356149,256.45000000002824,27.920014724609192,150.01062533130144,0.05129,0.005584002944921223,0.9998
728.0,0.14880000000000002,0.0034657049948186775,334.6000000000369,34.54658779670324,148.00883907895,0.06692000000000001,0.006909317559339887,0.9998
730.0,0.15699999999999997,0.0031572765260154795,210.25000000002316,32.92005561551551,146.0337652557433,0.042050000000000004,0.006584011123102376,0.9998
732.0,0.155,0.006377293826005664,286.50000000003155,53.570141513057685,144.08504740310818,0.0573,0.010714028302610359,0.9998
734.0,0.1528,0.008069023224806649,319.7000000000352,45.56741512295943,142.1623338191607,0.06394,0.009113483024590883,0.9998
736.0,0.16140000000000002,0.0037606146069787865,298.8000000000329,45.16829640356661,140.265277495231,0.05976000000000001,0.009033659280712328,0.9998
738.0,0.16469999999999999,0.0060378640651422245,294.3000000000324,49.64645997102779,138.39353605323578,0.058859999999999996,0.009929291994204465,0.9998
740.0,0.1603,0.009165393851027048,283.75000000003126,60.85031929271617,136.5467716838865,0.05675,0.012170063858541894,0.9998
742.0,0.1664,0.0058312906476425935,313.5500000000345,41.46302309228062,134.7246510857215,0.06271,0.008292604618455213,0.9998
744.0,0.1638,0.006781638244845469,297.9500000000328,54.310849131034416,132.92684540495304,0.05959,0.01086216982620569,0.9998
746.0,0.1665,0.007160384843785363,317.6000000000349,46.33102512236656,131.15303017611566,0.06352,0.00926620502447229,0.9998
748.0,0.16199999999999998,0.007863244704570163,313.2000000000345,48.88812120609928,129.40288526350724,0.06264,0.009777624241218781,0.9998
750.0,0.166,0.004489246410404898,263.550000000029,42.1028312000763,127.67609480341153,0.05270999999999999,0.008420566240014334,0.9998
752.0,0.1721,0.004415405130804622,198.0000000000218,32.005367991122036,125.97234714709096,0.039599999999999996,0.006401073598223703,0.9998
