nm	musp[cm-1]
450.0	80.40444774563193
451.0008703220191	80.06572148297697
452.0017406440383	79.73016490343953
453.00261096605743	79.3977382456694
454.0034812880766	79.06840234732913
455.00435161009574	78.74211863468962
456.00522193211486	78.41884911242911
457.00609225413405	78.09855635363185
458.00696257615317	77.7812034899817
459.0078328981723	77.46675420214645
460.0087032201915	77.15517271034891
461.0095735422106	76.84642376512078
462.0104438642298	76.54047263823502
463.0113141862489	76.23728511381337
464.01218450826804	75.93682747960469
465.0130548302872	75.63906651843105
466.01392515230634	75.34396949979778
467.0147954743255	75.05150417166347
468.01566579634465	74.76163875236765
469.0165361183638	74.47434192271162
470.01740644038296	74.18958281818985
471.0182767624021	73.90733102136892
472.0191470844212	73.62755655441005
473.0200174064404	73.35022987173326
474.0208877284595	73.0753218528195
475.0217580504787	72.80280379514791
476.0226283724978	72.53264740726581
477.02349869451695	72.26482480198807
478.0243690165361	71.99930848972365
479.02523933855525	71.73607137192656
480.02610966057443	71.47508673466822
481.02697998259356	71.21632824232961
482.0278503046127	70.95976993140972
483.02872062663187	70.70538620444873
484.029590948651	70.453151824063
485.0304612706701	70.20304190708998
486.0313315926893	69.95503191884055
487.0322019147084	69.70909766745663
488.0330722367276	69.46521529837196
489.03394255874673	69.22336128887402
490.0348128807659	68.98351244276486
491.03568320278504	68.7456458851191
492.03655352480416	68.50973905713663
493.03742384682334	68.2757697110889
494.03829416884247	68.04371590535614
495.0391644908616	67.81355599955415
496.0400348128808	67.58526864974861
497.0409051348999	67.35883280375548
498.041775456919	67.13422769652522
499.0426457789382	66.91143284560992
500.04351610095733	66.69042804671096
501.0443864229765	66.47119336930605
502.04525674499564	66.25370915235398
503.0461270670148	66.03795600007534
504.04699738903395	65.82391477780813
505.0478677110531	65.61156660793631
506.04873803307225	65.40089286589028
507.0496083550914	65.19187517621761
508.0504786771105	64.9844954087226
509.0513489991297	64.77873567467367
510.0522193211488	64.57457832307698
511.053089643168	64.37200593701485
512.0539599651871	64.17100133004826
513.0548302872063	63.97154754268149
514.0557006092254	63.77362783888855
515.0565709312446	63.57722570269901
516.0574412532637	63.38232483484357
517.0583115752829	63.18890914945687
518.059181897302	62.99696277083739
519.0600522193212	62.806470030262595
520.0609225413402	62.61741546285919
521.0617928633594	62.42978380452629
522.0626631853786	62.243559988911585
523.0635335073978	62.05872914443882
524.0644038294168	61.87527659138574
525.065274151436	61.69318783901174
526.0661444734552	61.51244858273414
527.0670147954743	61.333044701352144
528.0678851174935	61.15496225431759
529.0687554395126	60.97818747905184
530.0696257615318	60.80270678830744
531.0704960835509	60.628506767574414
532.0713664055701	60.455574172529595
533.0722367275891	60.283895926528814
534.0731070496083	60.11345911814087
535.0739773716275	59.944250998722424
536.0748476936467	59.776258980033404
537.0757180156658	59.609470631891604
538.0765883376849	59.44387367986645
539.0774586597041	59.27945600301058
540.0783289817232	59.11620563162908
541.0791993037424	58.95411074508505
542.0800696257616	58.79315966964168
543.0809399477807	58.63334087633928
544.0818102697998	58.474642978907276
545.082680591819	58.317054731710186
546.083550913838	58.16056502772717
547.0844212358572	58.00516289656439
548.0852915578764	57.850837502499644
549.0861618798956	57.69757814255871
550.0870322019147	57.545374244622785
551.0879025239338	57.394215365566495
552.088772845953	57.24409118942589
553.0896431679721	57.094991525596015
554.0905134899913	56.94690630705718
555.0913838120105	56.799825588630014
556.0922541340296	56.65373954525808
557.0931244560487	56.50863847031808
558.0939947780679	56.36451277395704
559.0948651000871	56.22135298145582
560.0957354221061	56.079149731618756
561.0966057441253	55.937893775188556
562.0974760661445	55.79757597328671
563.0983463881636	55.658187295878086
564.0992167101828	55.51971882026
565.1000870322019	55.38216172957493
566.100957354221	55.245507311346735
567.1018276762402	55.1097469560396
568.1026979982594	54.9748721556397
569.1035683202786	54.84087450225906
570.1044386422976	54.70774568676095
571.1053089643168	54.57547749740693
572.106179286336	54.44406181852467
573.107049608355	54.31349062919683
574.1079199303742	54.183756001969556
575.1087902523934	54.05485010158178
576.1096605744125	53.92676518371337
577.1105308964317	53.79949359375296
578.1114012184509	53.673027765584706
579.1122715404699	53.54736022039343
580.1131418624891	53.42248356548827
581.1140121845083	53.29839049314427
582.1148825065275	53.17507377946157
583.1157528285465	53.05252628324207
584.1166231505657	52.930740944883034
585.1174934725848	52.80971078528774
586.118363794604	52.68942890479232
587.1192341166231	52.56988848210906
588.1201044386423	52.45108277328563
589.1209747606615	52.333005110679835
590.1218450826806	52.21564890195
591.1227154046998	52.09900762906037
592.1235857267188	51.98307484730152
593.124456048738	51.86784418432539
594.1253263707572	51.75330933919462
595.1261966927764	51.63946408144637
596.1270670147954	51.52630225016967
597.1279373368146	51.41381775309684
598.1288076588337	51.302004565708174
599.1296779808529	51.19085673034996
600.1305483028721	51.08036835536553
601.1314186248912	50.9705336142392
602.1322889469104	50.86134674475266
603.1331592689295	50.752802048153924
604.1340295909487	50.64489388833844
605.1348999129677	50.53761669104215
606.1357702349869	50.43096494304649
607.1366405570061	50.324933191394805
608.1375108790253	50.21951604262035
609.1383812010444	50.114708161985526
610.1392515230635	50.01050427273203
611.1401218450827	49.90689915534207
612.1409921671018	49.80388764681011
613.141862489121	49.7014646399253
614.1427328111401	49.5996250825641
615.1436031331593	49.49836397699333
616.1444734551784	49.39767637918292
617.1453437771976	49.297557398128816
618.1462140992166	49.1980021951855
619.1470844212358	49.09900598340799
620.147954743255	49.000564026903334
621.1488250652742	48.90267164019135
622.1496953872933	48.80532418757443
623.1505657093124	48.70851708251621
624.1514360313316	48.612245787029366
625.1523063533507	48.51650581107174
626.1531766753699	48.42129271195116
627.1540469973891	48.32660209373871
628.1549173194082	48.23242960669019
629.1557876414273	48.13877094667575
630.1566579634465	48.04562185461754
631.1575282854656	47.95297811593524
632.1583986074847	47.86083555999935
633.1592689295039	47.76919005959219
634.1601392515231	47.67803753037627
635.1610095735422	47.58737393037029
636.1618798955614	47.49719525943218
637.1627502175805	47.40749755874957
638.1636205395996	47.31827691033709
639.1644908616188	47.22952943654085
640.165361183638	47.141251299549566
641.1662315056572	47.05343870091265
642.1671018276762	46.966087881064674
643.1679721496954	46.87919511885661
644.1688424717145	46.79275673109344
645.1697127937337	46.70676907207796
646.1705831157528	46.62122853316111
647.171453437772	46.53613154229816
648.1723237597911	46.451474563611136
649.1731940818103	46.36725409695714
650.1740644038294	46.28346667750255
651.1749347258485	46.20010887530299
652.1758050478677	46.11717729488904
653.1766753698869	46.03466857485744
654.1775456919061	45.95257938746801
655.1784160139251	45.8709064382458
656.1792863359443	45.789646465588675
657.1801566579634	45.7087962403803
658.1810269799826	45.62835256560809
659.1818973020017	45.548312275986504
660.1827676240209	45.4686722375852
661.18363794604	45.38942934746231
662.1845082680592	45.31058053330243
663.1853785900784	45.23212275305968
664.1862489120974	45.15405299460524
665.1871192341166	45.07636827537973
666.1879895561358	44.99906564205021
667.188859878155	44.922142170171604
668.189730200174	44.845594963852704
669.1906005221932	44.76942115542646
670.1914708442123	44.693617905124846
671.1923411662315	44.618182400757654
672.1932114882507	44.54311185739587
673.1940818102698	44.46840351705892
674.1949521322889	44.3940546484062
675.1958224543081	44.320062546432425
676.1966927763273	44.24642453216725
677.1975630983463	44.17313795237855
678.1984334203655	44.10020017927961
679.1993037423847	44.02760861024027
680.2001740644039	43.95536066750157
681.201044386423	43.88345379789436
682.2019147084421	43.81188547256127
683.2027850304612	43.74065318668251
684.2036553524804	43.66975445920503
685.2045256744996	43.599186832575306
686.2053959965187	43.52894787247543
687.2062663185378	43.45903516756268
688.207136640557	43.38944632921234
689.2080069625762	43.32017899126393
690.2088772845952	43.25123080977054
691.2097476066144	43.18259946275142
692.2106179286336	43.1142826499478
693.2114882506528	43.046278092581666
694.2123585726719	42.97858353311768
695.213228894691	42.91119673502808
696.2140992167101	42.84411548256066
697.2149695387293	42.77733758050949
698.2158398607485	42.71086085398873
699.2167101827677	42.64468314820912
700.2175805047867	42.57880232825743
701.2184508268059	42.51321627887856
702.2193211488251	42.44792290426042
703.2201914708442	42.38292012782154
704.2210617928633	42.318205892001245
705.2219321148825	42.25377815805253
706.2228024369017	42.189634905837515
707.2236727589208	42.12577413362535
708.22454308094	42.06219385789271
709.225413402959	41.998892113126836
710.2262837249782	41.93586695163079
711.2271540469974	41.87311644333137
712.2280243690166	41.810638675589246
713.2288946910357	41.748431753011474
714.2297650130548	41.686493797266344
715.2306353350739	41.62482294690042
716.2315056570931	41.56341735715797
717.2323759791122	41.50227519980243
718.2332463011314	41.441394662940276
719.2341166231506	41.380773950846795
720.2349869451697	41.32041128379417
721.2358572671889	41.2603048978816
722.2367275892079	41.20045304486746
723.2375979112271	41.14085399200354
724.2384682332463	41.081506021871284
725.2393385552655	41.02240743221998
726.2402088772847	40.96355653580694
727.2410791993037	40.904951660239675
728.2419495213229	40.84659114781975
729.242819843342	40.788473355388845
730.2436901653612	40.73059665417636
731.2445604873803	40.672959429649055
732.2454308093995	40.615560081362375
733.2463011314186	40.55839702281365
734.2471714534378	40.50146868129696
735.2480417754568	40.44477349775976
736.248912097476	40.38830992666127
737.2497824194952	40.33207643583246
738.2506527415144	40.276071506337786
739.2515230635336	40.22029363233848
740.2523933855526	40.16474132095757
741.2532637075718	40.1094130921463
742.2541340295909	40.05430747855244
743.2550043516101	39.99942302538982
744.2558746736293	39.9447582903096
745.2567449956484	39.890311843273054
746.2576153176675	39.836082266425706
747.2584856396867	39.78206815397309
748.2593559617058	39.72826811205791
749.2602262837249	39.67468075863861
750.2610966057441	39.6213047233694
751.2619669277633	39.56813864748169
752.2628372497825	39.515181183666826
753.2637075718015	39.46243099596035
754.2645778938207	39.40988675962735
755.2654482158398	39.35754716104943
756.266318537859	39.30541089761279
757.2671888598782	39.25347667759765
758.2680591818973	39.20174322006897
759.2689295039164	39.15020925476845
760.2697998259356	39.09887352200765
761.2706701479547	39.047734772562585
762.2715404699738	38.9967917675692
763.272410791993	38.94604327842034
764.2732811140122	38.89548808666376
765.2741514360314	38.84512498390129
766.2750217580505	38.79495277168918
767.2758920800696	38.744970261439605
768.2767624020887	38.695176274323266
769.2776327241079	38.645569641173076
770.2785030461271	38.59614920238897
771.2793733681463	38.54691380784383
772.2802436901654	38.49786231679036
773.2811140121845	38.44899359776912
774.2819843342036	38.400306528517575
775.2828546562228	38.35179999588016
776.2837249782419	38.30347289571928
777.2845953002611	38.255324132827496
778.2854656222803	38.20735262084054
779.2863359442994	38.159557282151276
780.2872062663185	38.111937047824824
781.2880765883376	38.06449085751441
782.2889469103568	38.01721765937829
783.289817232376	37.970116409997566
784.2906875543952	37.92318607429489
785.2915578764143	37.87642562545413
786.2924281984334	37.82983404484085
787.2932985204525	37.78341032192371
788.2941688424717	37.73715345419679
789.2950391644908	37.69106244710268
790.29590948651	37.645136313956456
791.2967798085292	37.59937407587053
792.2976501305483	37.55377476168025
793.2985204525675	37.508337407870414
794.2993907745865	37.4630610585025
795.3002610966057	37.41794476514274
796.3011314186249	37.37298758679099
797.3020017406441	37.32818858981035
798.3028720626633	37.28354684785757
799.3037423846823	37.23906144181421
800.3046127067014	37.19473145971852
801.3054830287206	37.150555996698124
802.3063533507398	37.106534154903414
803.3072236727589	37.06266504344159
804.3080939947781	37.018947778311535
805.3089643167972	36.97538148233932
806.3098346388164	36.931965285114366
807.3107049608354	36.88869832292645
808.3115752828546	36.845579738703194
809.3124456048738	36.8026086819484
810.313315926893	36.759784308680885
811.3141862489122	36.71710578137415
812.3150565709312	36.6745722688965
813.3159268929503	36.63218294645198
814.3167972149695	36.589936995521796
815.3176675369887	36.547833603806545
816.3185378590078	36.50587196516883
817.319408181027	36.46405127957664
818.3202785030461	36.42237075304732
819.3211488250653	36.380829597592076
820.3220191470843	36.33942703116112
821.3228894691035	36.29816227758938
822.3237597911227	36.25703456654273
823.3246301131419	36.21604313346492
824.3255004351611	36.17518721952493
825.3263707571801	36.13446607156491
826.3272410791992	36.09387894204876
827.3281114012184	36.05342508901109
828.3289817232376	36.01310377600689
829.3298520452568	35.97291427206156
830.3307223672759	35.93285585162159
831.331592689295	35.89292779450572
832.3324630113142	35.85312938585651
833.3333333333333	35.81345991609262
834.3342036553524	35.77391868086136
835.3350739773716	35.73450498099192
836.3359442993908	35.69521812244894
837.33681462141	35.65605741628668
838.337684943429	35.61702217860356
839.3385552654481	35.57811173049726
840.3394255874673	35.53932539802019
841.3402959094865	35.500662512135534
842.3411662315057	35.46212240867363
843.3420365535248	35.4237044282889
844.3429068755439	35.38540791641713
845.3437771975631	35.34723222323322
846.3446475195822	35.30917670360946
847.3455178416013	35.27124071707402
848.3463881636205	35.233423627770144
849.3472584856397	35.19572480441547
850.3481288076589	35.158143620261995
851.348999129678	35.1206794530563
852.349869451697	35.0833316850003
853.3507397737162	35.046099702712254
854.3516100957354	35.00898289718828
855.3524804177546	34.971980663764214
856.3533507397738	34.93509240207788
857.3542210617928	34.89831751603169
858.355091383812	34.86165541375568
859.3559617058311	34.82510550757086
860.3568320278503	34.788667213953026
861.3577023498694	34.752339953496794
862.3585726718886	34.71612315088011
863.3594429939078	34.680016234829125
864.3603133159269	34.644018638083274
865.3611836379459	34.608129797360895
866.3620539599651	34.57234915332505
867.3629242819843	34.53667615054974
868.3637946040035	34.50111023748649
869.3646649260227	34.4656508664312
870.3655352480417	34.43029749349134
871.3664055700609	34.3950495785535
872.36727589208	34.35990658525124
873.3681462140992	34.32486798093329
874.3690165361184	34.28993323663199
875.3698868581375	34.25510182703209
876.3707571801567	34.22037323043993
877.3716275021758	34.18574692875274
878.372497824195	34.1512224074284
879.373368146214	34.116799155455475
880.3742384682332	34.08247666532343
881.3751087902524	34.04825443299333
882.3759791122716	34.014131957868614
883.3768494342906	33.98010874276633
884.3777197563098	33.9461842938885
885.3785900783289	33.91235812079393
886.3794604003481	33.878629736370144
887.3803307223673	33.844998656805664
888.3812010443864	33.811464401562546
889.3820713664056	33.77802649334918
890.3829416884247	33.74468445809336
891.3838120104439	33.711437824915606
892.384682332463	33.67828612610276
893.3855526544821	33.64522889708175
894.3864229765013	33.6122656763938
895.3872932985205	33.57939600566865
896.3881636205396	33.546619429599204
897.3890339425587	33.51393549591636
898.3899042645778	33.48134375536404
899.390774586597	33.44884376167449
900.3916449086162	33.416435071543894
901.3925152306354	33.38411724460807
902.3933855526545	33.35188984341852
903.3942558746736	33.31975243341863
904.3951261966928	33.28770458292015
905.3959965187119	33.25574586307991
906.396866840731	33.22387584787664
907.3977371627502	33.192094114088185
908.3986074847694	33.16040024126876
909.3994778067886	33.12879381172658
910.4003481288077	33.09727441050156
911.4012184508267	33.06584162534333
912.4020887728459	33.034495046689386
913.4029590948651	33.00323426764351
914.4038294168843	32.97205888395433
915.4046997389034	32.94096849399411
916.4055700609225	32.909962698737765
917.4064403829417	32.879041101742
918.4073107049608	32.84820330912475
919.40818102698	32.81744892954466
920.4090513489991	32.78677757418097
921.4099216710183	32.75618885671333
922.4107919930375	32.72568239330205
923.4116623150566	32.695257802568335
924.4125326370756	32.664914705574844
925.4134029590948	32.634652725806326
926.414273281114	32.60447148915053
927.4151436031332	32.574370623879204
928.4160139251524	32.544349760629316
929.4168842471714	32.51440853238447
930.4177545691906	32.484546574456395
931.4186248912097	32.45476352446675
932.4194952132289	32.42505902232896
933.420365535248	32.39543271023031
934.4212358572672	32.36588423261415
935.4221061792864	32.33641323616228
936.4229765013055	32.30701936977752
937.4238468233245	32.27770228456638
938.4247171453437	32.248461633821954
939.4255874673629	32.21929707300694
940.4264577893821	32.190208259736785
941.4273281114013	32.161194853763035
942.4281984334203	32.13225651695684
943.4290687554395	32.10339291329249
944.4299390774586	32.074603708831305
945.4308093994778	32.04588857170546
946.431679721497	32.017247172102124
947.4325500435161	31.988679182247644
948.4334203655353	31.960184276391846
949.4342906875544	31.931762130792645
950.4351610095734	31.90341242370055
951.4360313315926	31.875134835343516
952.4369016536118	31.846929047911818
953.437771975631	31.818794745543123
954.4386422976502	31.790731614307614
955.4395126196692	31.762739342193345
956.4403829416884	31.734817619091643
957.4412532637075	31.706966136782718
958.4421235857267	31.67918458892131
959.4429939077459	31.651472671022535
960.443864229765	31.623830080447856
961.4447345517842	31.596256516391115
962.4456048738033	31.568751679864768
963.4464751958225	31.541315273686156
964.4473455178415	31.513947002464
965.4482158398607	31.486646572584913
966.4490861618799	31.459413692200098
967.449956483899	31.432248071212154
968.4508268059182	31.405149421261957
969.4516971279373	31.378117455715707
970.4525674499565	31.351151889652048
971.4534377719756	31.324252439849353
972.4543080939948	31.297418824773025
973.455178416014	31.270650764563054
974.456048738033	31.243947981021524
975.4569190600522	31.217310197600337
976.4577893820714	31.190737139389007
977.4586597040905	31.16422853310257
978.4595300261096	31.13778410706957
979.4604003481288	31.11140359122019
980.4612706701479	31.085086717074486
981.4621409921671	31.058833217730633
982.4630113141862	31.032642827853444
983.4638816362054	31.00651528366279
984.4647519582245	30.980450322922287
985.4656222802437	30.95444768492797
986.4664926022629	30.928507110497137
987.4673629242819	30.90262834195722
988.4682332463011	30.87681112313482
989.4691035683203	30.85105519934478
990.4699738903394	30.82536031737941
991.4708442123585	30.799726225497707
992.4717145343777	30.774152673414807
993.4725848563968	30.748639412291396
994.473455178416	30.723186194723265
995.4743255004352	30.697792774730996
996.4751958224543	30.672458907749647
997.4760661444734	30.6471843506186
998.4769364664926	30.621968861571432
999.4778067885118	30.59681220022596
1000.4786771105308	30.571714127574253
1001.47954743255	30.546674405972837
1002.4804177545692	30.52169279913293
