nm	musp[cm-1]
450.0	22.602440663874262
451.0008703220191	22.519098143417825
452.0017406440383	22.43639387484011
453.00261096605743	22.354320723734418
454.0034812880766	22.272871656588837
455.00435161009574	22.19203973909604
456.00522193211486	22.111818134495458
457.00609225413405	22.03220010194718
458.00696257615317	21.95317899493685
459.0078328981723	21.874748259710916
460.0087032201915	21.79690143374158
461.0095735422106	21.71963214422088
462.0104438642298	21.64293410658313
463.0113141862489	21.56680112305532
464.01218450826804	21.49122708123469
465.0130548302872	21.4162059526931
466.01392515230634	21.341731791607437
467.0147954743255	21.267798733415635
468.01566579634465	21.194400993497787
469.0165361183638	21.121532865881722
470.01740644038296	21.04918872197261
471.0182767624021	20.977363009306117
472.0191470844212	20.906050250324533
473.0200174064404	20.835245041175494
474.0208877284595	20.76494205053275
475.0217580504787	20.695136018438575
476.0226283724978	20.625821755167404
477.02349869451695	20.556994140110124
478.0243690165361	20.488648120678775
479.02523933855525	20.420778711231144
480.02610966057443	20.353380992014788
481.02697998259356	20.286450108130285
482.0278503046127	20.2199812685131
483.02872062663187	20.153969744933825
484.029590948651	20.08841087101642
485.0304612706701	20.023300041274
486.0313315926893	19.958632710161925
487.0322019147084	19.89440439114776
488.0330722367276	19.830610655797816
489.03394255874673	19.767247132879945
490.0348128807659	19.70430950748219
491.03568320278504	19.641793520147132
492.03655352480416	19.579694966021357
493.03742384682334	19.518009694020108
494.03829416884247	19.456733606006463
495.0391644908616	19.395862655984963
496.0400348128808	19.335392849309375
497.0409051348999	19.27532024190427
498.041775456919	19.215640939500137
499.0426457789382	19.15635109688186
500.04351610095733	19.097446917150165
501.0443864229765	19.038924650995888
502.04525674499564	18.980780595986797
503.0461270670148	18.923011095866634
504.04699738903395	18.865612539866312
505.0478677110531	18.80858136202683
506.04873803307225	18.751914040533872
507.0496083550914	18.695607097063736
508.0504786771105	18.63965709614038
509.0513489991297	18.584060644503463
510.0522193211488	18.528814390487128
511.053089643168	18.4739150234092
512.0539599651871	18.41935927297087
513.0548302872063	18.365143908666337
514.0557006092254	18.31126573920255
515.0565709312446	18.257721611928538
516.0574412532637	18.20450841227446
517.0583115752829	18.1516230631999
518.059181897302	18.099062524651465
519.0600522193212	18.04682379302935
520.0609225413402	17.994903900662848
521.0617928633594	17.943299915294464
522.0626631853786	17.892008939572623
523.0635335073978	17.841028110552774
524.0644038294168	17.790354599206648
525.065274151436	17.739985609939648
526.0661444734552	17.689918380116126
527.0670147954743	17.640150179592464
528.0678851174935	17.590678310257722
529.0687554395126	17.541500105581882
530.0696257615318	17.49261293017132
531.0704960835509	17.444014179331617
532.0713664055701	17.395701278637354
533.0722367275891	17.347671683508935
534.0731070496083	17.29992287879619
535.0739773716275	17.252452378368744
536.0748476936467	17.205257724712904
537.0757180156658	17.15833648853506
538.0765883376849	17.111686268371397
539.0774586597041	17.06530469020387
540.0783289817232	17.019189407082315
541.0791993037424	16.973338098752492
542.0800696257616	16.92774847129016
543.0809399477807	16.88241825674082
544.0818102697998	16.83734521276524
545.082680591819	16.79252712229054
546.083550913838	16.747961793166777
547.0844212358572	16.70364705782892
548.0852915578764	16.65958077296414
549.0861618798956	16.615760819184317
550.0870322019147	16.572185100703607
551.0879025239338	16.528851545021094
552.088772845953	16.485758102608354
553.0896431679721	16.442902746601906
554.0905134899913	16.40028347250031
555.0913838120105	16.357898297866132
556.0922541340296	16.315745262032358
557.0931244560487	16.27382242581338
558.0939947780679	16.232127871220438
559.0948651000871	16.190659701181403
560.0957354221061	16.149416039264903
561.0966057441253	16.108395029408538
562.0974760661445	16.06759483565141
563.0983463881636	16.027013641870578
564.0992167101828	15.986649651521601
565.1000870322019	15.946501087382966
566.100957354221	15.906566191304433
567.1018276762402	15.866843223959107
568.1026979982594	15.82733046459931
569.1035683202786	15.788026210816108
570.1044386422976	15.748928778302417
571.1053089643168	15.71003650061969
572.106179286336	15.671347728968074
573.107049608355	15.63286083196004
574.1079199303742	15.59457419539727
575.1087902523934	15.556486222051022
576.1096605744125	15.518595331445614
577.1105308964317	15.48089995964517
578.1114012184509	15.443398559043546
579.1122715404699	15.406089598157278
580.1131418624891	15.368971561421647
581.1140121845083	15.332042948989697
582.1148825065275	15.295302276534235
583.1157528285465	15.25874807505268
584.1166231505657	15.222378890674806
585.1174934725848	15.186193284473271
586.118363794604	15.150189832276888
587.1192341166231	15.114367124486632
588.1201044386423	15.078723765894306
589.1209747606615	15.043258375503813
590.1218450826806	15.007969586355015
591.1227154046998	14.972856045350158
592.1235857267188	14.937916413082744
593.124456048738	14.90314936366891
594.1253263707572	14.868553584581164
595.1261966927764	14.834127776484573
596.1270670147954	14.799870653075214
597.1279373368146	14.765780940920964
598.1288076588337	14.731857379304573
599.1296779808529	14.698098720068893
600.1305483028721	14.664503727464403
601.1314186248912	14.631071177998777
602.1322889469104	14.597799860288664
603.1331592689295	14.564688574913507
604.1340295909487	14.531736134271428
605.1348999129677	14.498941362437133
606.1357702349869	14.466303095021829
607.1366405570061	14.433820179035045
608.1375108790253	14.401491472748466
609.1383812010444	14.369315845561557
610.1392515230635	14.337292177869145
611.1401218450827	14.305419360930797
612.1409921671018	14.273696296742008
613.141862489121	14.24212189790717
614.1427328111401	14.210695087514292
615.1436031331593	14.179414799011488
616.1444734551784	14.14827997608506
617.1453437771976	14.117289572539383
618.1462140992166	14.086442552178314
619.1470844212358	14.055737888688315
620.147954743255	14.025174565523107
621.1488250652742	13.994751575789948
622.1496953872933	13.96446792213741
623.1505657093124	13.934322616644684
624.1514360313316	13.904314680712423
625.1523063533507	13.87444314495502
626.1531766753699	13.844707049094358
627.1540469973891	13.81510544185498
628.1549173194082	13.785637380860692
629.1557876414273	13.756301932532503
630.1566579634465	13.727098171988006
631.1575282854656	13.698025182942024
632.1583986074847	13.669082057608643
633.1592689295039	13.64026789660453
634.1601392515231	13.611581808853513
635.1610095735422	13.583022911492478
636.1618798955614	13.554590329778438
637.1627502175805	13.526283196996934
638.1636205395996	13.498100654371537
639.1644908616188	13.470041850974617
640.165361183638	13.442105943639248
641.1662315056572	13.414292096872298
642.1671018276762	13.386599482768622
643.1679721496954	13.359027280926409
644.1688424717145	13.331574678363628
645.1697127937337	13.304240869435537
646.1705831157528	13.277025055753302
647.171453437772	13.24992644610366
648.1723237597911	13.222944256369606
649.1731940818103	13.196077709452126
650.1740644038294	13.169326035192938
651.1749347258485	13.142688470298223
652.1758050478677	13.116164258263348
653.1766753698869	13.089752649298532
654.1775456919061	13.063452900255502
655.1784160139251	13.037264274555069
656.1792863359443	13.011186042115597
657.1801566579634	12.98521747928247
658.1810269799826	12.959357868758344
659.1818973020017	12.933606499534404
660.1827676240209	12.90796266682238
661.18363794604	12.882425671987537
662.1845082680592	12.856994822482386
663.1853785900784	12.831669431781368
664.1862489120974	12.806448819316243
665.1871192341166	12.781332310412365
666.1879895561358	12.75631923622573
667.188859878155	12.731408933680816
668.189730200174	12.70660074540921
669.1906005221932	12.681894019688963
670.1914708442123	12.65728811038478
671.1923411662315	12.632782376888851
672.1932114882507	12.608376184062523
673.1940818102698	12.584068902178602
674.1949521322889	12.55985990686445
675.1958224543081	12.535748579045704
676.1966927763273	12.511734304890783
677.1975630983463	12.487816475755977
678.1984334203655	12.463994488131297
679.1993037423847	12.440267743586947
680.2001740644039	12.41663564872045
681.201044386423	12.393097615104445
682.2019147084421	12.369653059235082
683.2027850304612	12.346301402481117
684.2036553524804	12.323042071033523
685.2045256744996	12.299874495855818
686.2053959965187	12.276798112634912
687.2062663185378	12.253812361732631
688.207136640557	12.230916688137718
689.2080069625762	12.20811054141853
690.2088772845952	12.185393375676236
691.2097476066144	12.16276464949857
692.2106179286336	12.140223825914193
693.2114882506528	12.117770372347549
694.2123585726719	12.095403760574294
695.213228894691	12.073123466677242
696.2140992167101	12.050928971002843
697.2149695387293	12.028819758118157
698.2158398607485	12.006795316768395
699.2167101827677	11.984855139834895
700.2175805047867	11.962998724293637
701.2184508268059	11.941225571174249
702.2193211488251	11.91953518551946
703.2201914708442	11.897927076345097
704.2210617928633	11.876400756600464
705.2219321148825	11.854955743129295
706.2228024369017	11.833591556631037
707.2236727589208	11.81230772162271
708.22454308094	11.791103766401118
709.225413402959	11.769979223005572
710.2262837249782	11.74893362718098
711.2271540469974	11.727966518341422
712.2280243690166	11.70707743953413
713.2288946910357	11.68626593740386
714.2297650130548	11.665531562157714
715.2306353350739	11.64487386753034
716.2315056570931	11.624292410749552
717.2323759791122	11.603786752502334
718.2332463011314	11.583356456901257
719.2341166231506	11.563001091451218
720.2349869451697	11.54272022701666
721.2358572671889	11.522513437789062
722.2367275892079	11.50238030125489
723.2375979112271	11.482320398163838
724.2384682332463	11.462333312497487
725.2393385552655	11.442418631438304
726.2402088772847	11.422575945338954
727.2410791993037	11.402804847692023
728.2419495213229	11.383104935100032
729.242819843342	11.363475807245832
730.2436901653612	11.343917066863275
731.2445604873803	11.324428319708282
732.2454308093995	11.305009174530182
733.2463011314186	11.285659243043412
734.2471714534378	11.266378139899487
735.2480417754568	11.247165482659346
736.248912097476	11.228020891765937
737.2497824194952	11.208943990517167
738.2506527415144	11.189934405039118
739.2515230635336	11.170991764259568
740.2523933855526	11.152115699881815
741.2532637075718	11.133305846358764
742.2541340295909	11.11456184086735
743.2550043516101	11.095883323283173
744.2558746736293	11.077269936155487
745.2567449956484	11.058721324682411
746.2576153176675	11.040237136686429
747.2584856396867	11.021817022590163
748.2593559617058	11.003460635392393
749.2602262837249	10.985167630644378
750.2610966057441	10.96693766642639
751.2619669277633	10.948770403324522
752.2628372497825	10.930665504407763
753.2637075718015	10.912622635205302
754.2645778938207	10.894641463684065
755.2654482158398	10.876721660226552
756.266318537859	10.858862897608835
757.2671888598782	10.841064850978862
758.2680591818973	10.823327197834944
759.2689295039164	10.805649618004518
760.2697998259356	10.788031793623093
761.2706701479547	10.770473409113455
762.2715404699738	10.752974151165079
763.272410791993	10.735533708713765
764.2732811140122	10.7181517729215
765.2741514360314	10.700828037156501
766.2750217580505	10.683562196973519
767.2758920800696	10.666353950094312
768.2767624020887	10.64920299638835
769.2776327241079	10.632109037853706
770.2785030461271	10.615071778598157
771.2793733681463	10.59809092482049
772.2802436901654	10.581166184792002
773.2811140121845	10.564297268838175
774.2819843342036	10.547483889320572
775.2828546562228	10.530725760618912
776.2837249782419	10.514022599113323
777.2845953002611	10.497374123166795
778.2854656222803	10.480780053107802
779.2863359442994	10.464240111213126
780.2872062663185	10.447754021690821
781.2880765883376	10.43132151066341
782.2889469103568	10.4149423061512
783.289817232376	10.3986161380558
784.2906875543952	10.382342738143812
785.2915578764143	10.366121840030674
786.2924281984334	10.349953179164684
787.2932985204525	10.333836492811168
788.2941688424717	10.317771520036837
789.2950391644908	10.301758001694292
790.29590948651	10.285795680406684
791.2967798085292	10.26988430055252
792.2976501305483	10.254023608250664
793.2985204525675	10.23821335134544
794.2993907745865	10.222453279391933
795.3002610966057	10.206743143641399
796.3011314186249	10.19108269702685
797.3020017406441	10.17547169414878
798.3028720626633	10.159909891261021
799.3037423846823	10.144397046256769
800.3046127067014	10.128932918654714
801.3054830287206	10.11351726958534
802.3063533507398	10.098149861777364
803.3072236727589	10.082830459544272
804.3080939947781	10.067558828771055
805.3089643167972	10.052334736901
806.3098346388164	10.037157952922685
807.3107049608354	10.022028247357047
808.3115752828546	10.006945392244628
809.3124456048738	9.991909161132902
810.313315926893	9.976919329063765
811.3141862489122	9.961975672561119
812.3150565709312	9.94707796961861
813.3159268929503	9.93222599968745
814.3167972149695	9.917419543664392
815.3176675369887	9.902658383879821
816.3185378590078	9.887942304085918
817.319408181027	9.873271089445016
818.3202785030461	9.858644526517994
819.3211488250653	9.844062403252844
820.3220191470843	9.829524508973298
821.3228894691035	9.815030634367627
822.3237597911227	9.800580571477488
823.3246301131419	9.78617411368691
824.3255004351611	9.7718110557114
825.3263707571801	9.75749119358712
826.3272410791992	9.743214324660197
827.3281114012184	9.72898024757612
828.3289817232376	9.71478876226925
829.3298520452568	9.700639669952437
830.3307223672759	9.686532773106709
831.331592689295	9.672467875471089
832.3324630113142	9.658444782032491
833.3333333333333	9.64446329901574
834.3342036553524	9.630523233873644
835.3350739773716	9.616624395277208
836.3359442993908	9.602766593105898
837.33681462141	9.588949638438034
838.337684943429	9.57517334354126
839.3385552654481	9.561437521863091
840.3394255874673	9.547741988021567
841.3402959094865	9.534086557796002
842.3411662315057	9.520471048117798
843.3420365535248	9.506895277061362
844.3429068755439	9.493359063835104
845.3437771975631	9.479862228772514
846.3446475195822	9.46640459332334
847.3455178416013	9.452985980044824
848.3463881636205	9.439606212593054
849.3472584856397	9.426265115714346
850.3481288076589	9.41296251523677
851.348999129678	9.39969823806171
852.349869451697	9.386472112155502
853.3507397737162	9.37328396654118
854.3516100957354	9.360133631290278
855.3524804177546	9.347020937514712
856.3533507397738	9.33394571735873
857.3542210617928	9.320907803990963
858.355091383812	9.307907031596494
859.3559617058311	9.294943235369086
860.3568320278503	9.28201625150338
861.3577023498694	9.269125917187267
862.3585726718886	9.256272070594234
863.3594429939078	9.24345455087586
864.3603133159269	9.230673198154332
865.3611836379459	9.217927853515043
866.3620539599651	9.205218358999264
867.3629242819843	9.192544557596884
868.3637946040035	9.179906293239194
869.3646649260227	9.167303410791764
870.3655352480417	9.154735756047378
871.3664055700609	9.14220317571901
872.36727589208	9.129705517432903
873.3681462140992	9.117242629721673
874.3690165361184	9.104814362017507
875.3698868581375	9.09242056464539
876.3707571801567	9.080061088816434
877.3716275021758	9.06773578662122
878.372497824195	9.05544451102323
879.373368146214	9.043187115852346
880.3742384682332	9.030963455798364
881.3751087902524	9.018773386404623
882.3759791122716	9.006616764061642
883.3768494342906	8.99449344600085
884.3777197563098	8.982403290288335
885.3785900783289	8.970346155818694
886.3794604003481	8.958321902308889
887.3803307223673	8.946330390292198
888.3812010443864	8.934371481112198
889.3820713664056	8.922445036916809
890.3829416884247	8.910550920652382
891.3838120104439	8.898688996057839
892.384682332463	8.886859127658893
893.3855526544821	8.875061180762273
894.3864229765013	8.863295021450032
895.3872932985205	8.851560516573905
896.3881636205396	8.839857533749692
897.3890339425587	8.828185941351704
898.3899042645778	8.816545608507285
899.390774586597	8.80493640509132
900.3916449086162	8.793358201720853
901.3925152306354	8.78181086974971
902.3933855526545	8.770294281263203
903.3942558746736	8.75880830907283
904.3951261966928	8.747352826711076
905.3959965187119	8.735927708426239
906.396866840731	8.724532829177265
907.3977371627502	8.713168064628702
908.3986074847694	8.70183329114561
909.3994778067886	8.690528385788594
910.4003481288077	8.679253226308832
911.4012184508267	8.668007691143153
912.4020887728459	8.65679165940916
913.4029590948651	8.645605010900422
914.4038294168843	8.634447626081652
915.4046997389034	8.623319386083972
916.4055700609225	8.612220172700201
917.4064403829417	8.601149868380181
918.4073107049608	8.590108356226155
919.40818102698	8.579095519988158
920.4090513489991	8.568111244059487
921.4099216710183	8.557155413472172
922.4107919930375	8.546227913892505
923.4116623150566	8.535328631616599
924.4125326370756	8.524457453565995
925.4134029590948	8.513614267283286
926.414273281114	8.502798960927802
927.4151436031332	8.49201142327131
928.4160139251524	8.481251543693764
929.4168842471714	8.470519212179095
930.4177545691906	8.459814319311
931.4186248912097	8.449136756268825
932.4194952132289	8.438486414823423
933.420365535248	8.427863187333099
934.4212358572672	8.417266966739536
935.4221061792864	8.406697646563812
936.4229765013055	8.3961551209024
937.4238468233245	8.38563928442322
938.4247171453437	8.375150032361741
939.4255874673629	8.364687260517085
940.4264577893821	8.354250865248188
941.4273281114013	8.343840743469967
942.4281984334203	8.333456792649551
943.4290687554395	8.323098910802514
944.4299390774586	8.312766996489156
945.4308093994778	8.302460948810795
946.431679721497	8.29218066740613
947.4325500435161	8.281926052447583
948.4334203655353	8.271697004637698
949.4342906875544	8.261493425205579
950.4351610095734	8.251315215903324
951.4360313315926	8.241162279002527
952.4369016536118	8.231034517290775
953.437771975631	8.2209318340682
954.4386422976502	8.210854133144029
955.4395126196692	8.2008013188332
956.4403829416884	8.190773295952967
957.4412532637075	8.180769969819558
958.4421235857267	8.170791246244853
959.4429939077459	8.160837031533084
960.443864229765	8.150907232477566
961.4447345517842	8.141001756357452
962.4456048738033	8.13112051093452
963.4464751958225	8.121263404449968
964.4473455178415	8.111430345621269
965.4482158398607	8.101621243639004
966.4490861618799	8.091836008163769
967.449956483899	8.082074549323066
968.4508268059182	8.07233677770824
969.4516971279373	8.062622604371454
970.4525674499565	8.052931940822631
971.4534377719756	8.043264699026505
972.4543080939948	8.033620791399612
973.455178416014	8.024000130807366
974.456048738033	8.014402630561127
975.4569190600522	8.004828204415295
976.4577893820714	7.995276766564434
977.4586597040905	7.9857482316404225
978.4595300261096	7.976242514709608
979.4604003481288	7.9667595312700055
980.4612706701479	7.957299197248506
981.4621409921671	7.947861428998096
982.4630113141862	7.9384461432951365
983.4638816362054	7.9290532573366095
984.4647519582245	7.91968268873744
985.4656222802437	7.910334355527792
986.4664926022629	7.90100817615042
987.4673629242819	7.891704069458024
988.4682332463011	7.882421954710626
989.4691035683203	7.873161751572974
990.4699738903394	7.863923380111962
991.4708442123585	7.854706760794056
992.4717145343777	7.8455118144827765
993.4725848563968	7.8363384624361565
994.473455178416	7.827186626304245
995.4743255004352	7.818056228126634
996.4751958224543	7.80894719032998
997.4760661444734	7.799859435725571
998.4769364664926	7.7907928875068855
999.4778067885118	7.781747469247207
